freq,sigma_ext,sigma_sc
0.001,9.1511757326222747e-08,9.3117227187301393e-08
0.002,3.4856463261049671e-06,3.488248039475616e-06
0.0030000000000000001,1.8033330346330333e-05,1.8041669203037215e-05
0.0040000000000000001,5.7196698639616149e-05,5.7221528631824113e-05
0.0050000000000000001,0.0001400432911929908,0.00014010233247458638
0.0060000000000000001,0.00029137530049026203,0.00029149444093179737
0.0070000000000000001,0.00054196240264391506,0.00054217620230489637
0.0080000000000000002,0.00092883054027344345,0.0009291819057396241
0.0090000000000000011,0.0014956092891503536,0.0014961482531987908
0.010000000000000002,0.0022929431713255804,0.0022937247219562691
0.010999999999999999,0.0033789725684205212,0.0033800534896105718
0.012,0.0048198905789403708,0.0048213252931746985
0.013000000000000001,0.0066905831456520641,0.00669241857559328
0.014000000000000002,0.0090753609396183738,0.0090776304424164938
0.014999999999999999,0.0120687928377122,0.0120715092917056
0.016,0.015776652337619726,0.015779800503821637
0.017000000000000001,0.020316990010124977,0.020320518310025647
0.018000000000000002,0.025821347032893863,0.025825158931343503
0.019000000000000003,0.032436127128780308,0.032440072331189271
0.02,0.040324146800988392,0.040328012500658483
0.021000000000000001,0.049666386698322289,0.049669889147296462
0.022000000000000002,0.06066397035469745,0.060666747045998566
0.023,0.073540400438527706,0.07354200320485707
0.024,0.088544087118218415,0.088543976479284248
0.025000000000000001,0.10595120833251337,0.10594874942701034
0.026000000000000002,0.12606894769654109,0.12606340814103392
0.027000000000000003,0.14923916261790932,0.14922971264735735
0.028000000000000001,0.17584254311587341,0.17582825834588639
0.029000000000000001,0.20630333090958863,0.20628319806131418
0.030000000000000002,0.24109467880178792,0.24106760472382238
0.031,0.28074474242305708,0.28070956670741581
0.032000000000000001,0.32584361013211205,0.32579912161111368
0.033000000000000002,0.37705119259664166,0.37699614998724218
0.034000000000000002,0.43510621150219458,0.43503936840346585
0.035000000000000003,0.50083644702862562,0.50075658145689328
0.036000000000000004,0.57517042647971595,0.57507637508172971
0.037000000000000005,0.65915076177827803,0.65904145877037656
0.037999999999999999,0.75394937117579919,0.75382389205914946
0.039,0.86088485057709552,0.86074246052955761
0.040000000000000001,0.98144229109097803,0.98128249793753497
0.041000000000000002,1.1172958712337913,1.1171184827152347
0.042000000000000003,1.2703345819209377,1.2701397669562398
0.043000000000000003,1.442691467436567,1.4424798208800726
0.044000000000000004,1.6367767804575697,1.6365493907331516
0.044999999999999998,1.8553154469159565,1.8550739657257869
0.045999999999999999,2.1013892058994945,2.1011359189743106
0.047,2.378483715116448,2.378221612693058
0.048000000000000001,2.6905407709283811,2.6902736163396899
0.049000000000000002,3.0420155517412897,3.0417479460254886
0.050000000000000003,3.4379384095611174,3.437675849538437
0.051000000000000004,3.8839801459692649,3.8837290725382068
0.052000000000000005,4.3865188326506006,4.3862866652527126
0.053000000000000005,4.9527049644108851,4.9525001166442726
0.053999999999999999,5.5905199256886036,5.5903517958153337
0.055,6.3088202403200793,6.3086991689804748
0.056000000000000001,7.1173566654844107,7.1172938512680073
0.057000000000000002,8.0267526887835974,8.0267600504626415
0.058000000000000003,9.0484212428725144,9.0485112152046874
0.059000000000000004,10.194391454750436,10.194576703021983
0.060000000000000005,11.477009287029926,11.477302324407841
0.060999999999999999,12.908467852448263,12.90888054440506
0.062,14.500116759282038,14.50065970175597
0.063,16.26149821947417,16.262179983704101
0.064000000000000001,18.199065779431574,18.199892027854222
0.065000000000000002,20.31456630724707,20.315538803831846
0.066000000000000003,22.603115411380962,22.604230977226045
0.067000000000000004,25.051077786919571,25.052327287899644
0.068000000000000005,27.633978237008328,27.635345731734624
0.069000000000000006,30.314804353084199,30.316266568843808
0.070000000000000007,33.043185288198501,33.044711615739054
0.071000000000000008,35.755986263903985,35.757539453747519
0.072000000000000008,38.379775543761532,38.381313227869143
0.073000000000000009,40.835346197468979,40.836823245634797
0.073999999999999996,43.044016914257888,43.045388475743536
0.074999999999999997,44.934899106069039,44.936124020089949
0.075999999999999998,46.451893103362039,46.452937239370996
0.076999999999999999,47.559066532429391,47.559905591628585
0.078,48.243371737782965,48.24399313101204
0.079000000000000001,48.514294970206763,48.514698563746705
0.080000000000000002,48.400762844752656,48.40096057778414
0.081000000000000003,47.946194390504438,47.946208953237381
0.082000000000000003,47.20281587159559,47.202678745664414
0.083000000000000004,46.226248497995222,46.225997688145902
0.084000000000000005,45.071058135041568,45.070735879646747
0.085000000000000006,43.787579112952592,43.787229781958786
0.086000000000000007,42.420011009973173,42.419679311330889
0.087000000000000008,41.005590980599891,41.005320521393386
0.088000000000000009,39.574562131013103,39.574394325728704
0.088999999999999996,38.150658807175738,38.150632093864729
0.089999999999999997,36.751875197661498,36.75202450869709
0.090999999999999998,35.391344774581945,35.391701206598064
0.091999999999999998,34.078216588657739,34.078807221495204
0.092999999999999999,32.818461854203953,32.819309676921407
0.094,31.615578593202564,31.616702503668925
0.095000000000000001,30.471184706379816,30.472599559989057
0.096000000000000002,29.385503315687025,29.387220006575053
0.097000000000000003,28.35775127258357,28.359776831450588
0.098000000000000004,27.386444577896089,27.388782283645863
0.099000000000000005,26.469634835664746,26.472284332608552
0.10000000000000001,25.605089858251663,25.60804727647885
0.10100000000000001,24.790429936333332,24.793688015687618
0.10200000000000001,24.023229508105846,24.02677772429389
0.10300000000000001,23.301092246408697,23.30491694017288
0.10400000000000001,22.621706060205753,22.625790569970022
0.10500000000000001,21.982883212403184,21.987208012338584
0.106,21.382589701837968,21.387132544046654
0.107,20.818967211255913,20.823703275762877
0.108,20.290350282174277,20.295252333780514
0.109,19.795280892745598,19.800319445868883
0.11,19.332522278700267,19.337665771616795
0.111,18.901073628564287,18.906288606778361
0.112,18.500187185267201,18.505438495812747
0.113,18.12938930050554,18.134640298260884
0.114,17.788507111084211,17.793719876941598
0.115,17.477702746113437,17.482838321120386
0.11600000000000001,17.197517359751462,17.20253599610535
0.11700000000000001,16.948927830734686,16.953789263720793
0.11800000000000001,16.733419732670903,16.73808347890996
0.11900000000000001,16.55308121306885,16.557506902091596
0.12000000000000001,16.410723803744837,16.414871553289863
0.121,16.310038027444264,16.313868877175253
0.122,16.255794092463468,16.259270516601767
0.123,16.254101126393312,16.25718765455672
0.124,16.312742435635023,16.315406423197452
0.125,16.44160926485441,16.443821871204015
0.126,16.653261332989089,16.654998790574492
0.127,16.963648370926443,16.964893661807146
0.128,17.393031094571107,17.393776199413928
0.129,17.967138033387631,17.967386982388842
0.13,18.718576538598629,18.718349580440972
0.13100000000000001,19.688461607265143,19.687800916136524
0.13200000000000001,20.928094160290161,20.927071609738366
0.13300000000000001,22.500234878251526,22.498962469770582
0.13400000000000001,24.478950241580016,24.47759365719261
0.13500000000000001,26.945967706623023,26.94476286558697
0.13600000000000001,29.979814537108485,29.979085423153883
0.13700000000000001,33.63199360141968,33.632166104116848
0.13800000000000001,37.883777321533842,37.88537769744007
0.13900000000000001,42.582713334603348,42.586332219520571
0.14000000000000001,47.377429178163652,47.38362976682658
0.14100000000000001,51.703423874255563,51.712590601774608
0.14200000000000002,54.890073505884537,54.902245447408646
0.14300000000000002,56.397194696973621,56.411978259503741
0.14400000000000002,56.052007446971643,56.068646372954767
0.14500000000000002,54.104566220721146,54.122143760905466
0.14599999999999999,51.068213866188437,51.085871489379841
0.14699999999999999,47.49050174699385,47.507574794497977
0.14799999999999999,43.801742052338788,43.817793839188482
0.14899999999999999,40.273680787904759,40.288472018413827
0.14999999999999999,37.044750489580039,37.058186453982294
0.151,34.164152678333963,34.176233427540168
0.152,31.630081238806756,31.6408636613805
0.153,29.415720696008364,29.425292768564837
0.154,27.484643974700418,27.49310848917662
0.155,25.799020537383662,25.80648534729589
0.156,24.323522264480317,24.330094713050443
0.157,23.026860283739943,23.032644198375472
0.158,21.882109070835916,21.887203275903016
0.159,20.866463247405779,20.870960948342411
0.16,19.960768627398622,19.964757272055554
0.161,19.148998594202887,19.152559981031636
0.16200000000000001,18.417755167492469,18.420965666617636
0.16300000000000001,17.755826580595603,17.758757393649848
0.16400000000000001,17.153809642433785,17.156527060168333
0.16500000000000001,16.603794269638826,16.606359909459879
0.16600000000000001,16.09910319422967,16.101574210117743
0.16700000000000001,15.634078667326166,15.636507929074165
0.16800000000000001,15.203908271425295,15.206344518499513
0.16900000000000001,14.804482853851361,14.806970826560773
0.17000000000000001,14.432280652949412,14.43486120555084
0.17100000000000001,14.084272716588833,14.086982917830898
0.17200000000000001,13.757845629577913,13.760718854983047
0.17300000000000001,13.450738345174358,13.453804365261067
0.17400000000000002,13.160990565235085,13.164275633563213
0.17500000000000002,12.886900649598591,12.89042759353417
0.17600000000000002,12.626991475691916,12.630779793039459
0.17699999999999999,12.379983038971087,12.384049002336125
0.17799999999999999,12.144770897127861,12.149127668046372
0.17899999999999999,11.920409839327977,11.925067593742318
0.17999999999999999,11.706102421806476,11.711068487735954
0.18099999999999999,11.501192271494252,11.506471279819804
0.182,11.30516234503332,11.310756393754806
0.183,11.117638667539866,11.123547500011828
0.184,10.93840050648677,10.94462170328045
0.185,10.767398514507066,10.773927698838138
0.186,10.604783191771288,10.611614247968372
0.187,10.450947205703162,10.45807251060786
0.188,10.306586883691843,10.313997549271368
0.189,10.172790908017449,10.180477035592688
0.19,10.051168495613878,10.059119438367425
0.191,9.9440361211626698,9.9522407555019434
0.192,9.8546929230665548,9.863139923979535
0.193,9.7878334165214813,9.7965115331119872
0.19400000000000001,9.7501777839472972,9.7590761060814106
0.19500000000000001,9.7514555607915536,9.7605637602957334
0.19600000000000001,9.805978711658808,9.8152872247462479
0.19700000000000001,9.9352257631065388,9.9447258472879625
0.19800000000000001,10.172211996928841,10.181895520598081
0.19900000000000001,10.569107898526804,10.578966556596223
0.20000000000000001,11.210916015885585,11.220939284442057
0.20100000000000001,12.240587007241251,12.250757243286028
0.20200000000000001,13.905173427170144,13.915454315121877
0.20300000000000001,16.634936293830151,16.645245607542524
0.20400000000000001,21.13600432762226,21.146151627626885
0.20500000000000002,28.241310150649785,28.250877609496865
0.20600000000000002,37.403680659408487,37.411949400257683
0.20700000000000002,43.314653462307056,43.321121768325284
0.20800000000000002,40.114693162578945,40.120036804928731
0.20900000000000002,31.812275905525286,31.817617417728158
0.20999999999999999,24.284640277857516,24.290475425786653
0.21099999999999999,18.935108942183369,18.941472523865528
0.21199999999999999,15.295193632107315,15.301983443424646
0.21299999999999999,12.765874673989645,12.772973831358518
0.214,10.93848216368292,10.94578614881789
0.215,9.5641022774458833,9.5715194356075823
0.216,8.4936800874726348,8.5011270686722344
0.217,7.6373180097244022,7.6447155970316603
0.218,6.9403466236158682,6.9476171026075564
0.219,6.3694982698851828,6.3765644766760623
0.22,5.9046891895722862,5.9114751642532157
0.221,5.533865759016142,5.5402988576859507
0.222,5.2495515870515828,5.2555657823565705
0.223,5.0464020553433162,5.0519419932967917
0.224,4.9194502831185654,4.9244754910340713
0.22500000000000001,4.8629302852587433,4.8674188234402225
0.22600000000000001,4.8696455004372705,4.8735963838168876
0.22700000000000001,4.9308489535671631,4.934282862146584
0.22800000000000001,5.0365512478761874,5.0395093623024279
0.22900000000000001,5.1761149200001171,5.1786560711030996
0.23000000000000001,5.3389628727602956,5.3411594737667913
0.23100000000000001,5.5152402859764456,5.5171736591320757
0.23200000000000001,5.6963169943316867,5.6980726916648008
0.23300000000000001,5.8750800209565845,5.876743608479039
0.23400000000000001,6.0460219920262599,6.0476755830287834
0.23500000000000001,6.2051674074208574,6.2068870576300901
0.23600000000000002,6.3498929687710604,6.3517469026893254
0.23700000000000002,6.4786955244117266,6.4807430817372094
0.23800000000000002,6.5909494101299266,6.5932405634329712
0.23900000000000002,6.6866806352249757,6.6892559277582055
0.24000000000000002,6.7663725936070609,6.7692633642896345
0.24099999999999999,6.8308085000154026,6.8340372881343994
0.24199999999999999,6.8809497033276266,6.8845307546798793
0.24299999999999999,6.9178457925845516,6.921785611664359
0.24399999999999999,6.9425711381779616,6.9468690505385835
0.245,6.9561824456198904,6.9608311506659666
0.246,6.9596924861592617,6.9646785895448993
0.247,6.9540560260674082,6.9593605487896388
0.248,6.9401649051056298,6.9457637701585035
0.249,6.9188501091884875,6.924714609669631
0.25,6.8908895268202386,6.8969867807896028
0.251,6.8570209071884127,6.8633143049781715
0.252,6.8179604343309981,6.8244100853959742
0.253,6.7744284531784063,6.7809916398961088
0.254,6.727185489374305,6.7338171372296127
0.255,6.677084279728307,6.683737457198335
0.25600000000000001,6.6251479948892511,6.6317744635779619
0.25700000000000001,6.5726930498680574,6.5792439003809635
0.25800000000000001,6.5215308163511674,6.5279572544010813
0.25900000000000001,6.4743150441815933,6.4805694539662104
0.26000000000000001,6.4351720486004877,6.4412095928761532
0.26100000000000001,6.4109129320595466,6.4166942573896515
0.26200000000000001,6.413532126262365,6.4190285040352082
0.26300000000000001,6.4658079363852332,6.471012236356243
0.26400000000000001,6.6152480472788149,6.6202012102163552
0.26500000000000001,6.9738713767911511,6.9787360658040658
0.26600000000000001,7.8542291619734002,7.8595359888541552
0.26700000000000002,10.360975216061096,10.368680034187349
0.26800000000000002,19.518726189054977,19.53812126508393
0.26900000000000002,35.90074193058723,35.948283336685705
0.27000000000000002,17.56693304113363,17.591121585556987
0.27100000000000002,9.9974340093880318,10.009353286073178
0.27200000000000002,7.5377676549230772,7.5450626207708167
0.27300000000000002,6.4465044661385189,6.4514530245955859
0.27400000000000002,5.8377801676748051,5.8412655124553412
0.27500000000000002,5.4403158857549352,5.4427726631991886
0.27600000000000002,5.1516994720640588,5.1533901144723364
0.27700000000000002,4.9277263825875952,4.9288410277075672
0.27800000000000002,4.7480946627626865,4.7487937273946343
0.27900000000000003,4.6038845625844269,4.6043193217709826
0.28000000000000003,4.4924313000381737,4.4927547804640993
0.28100000000000003,4.4150595540735429,4.4154325089476139
0.28200000000000003,4.3760316823790033,4.3766255518488499
0.28300000000000003,4.3820210915718407,4.3830185978300884
0.28400000000000003,4.4417667940350531,4.4433601829938896
0.28500000000000003,4.5656879782863511,4.5680745642055687
0.28600000000000003,4.7652756135933281,4.7686501196122162
0.28700000000000003,5.0520940837499655,5.0566373409561498
0.28800000000000003,5.4362641673309247,5.4421281287738248
0.28900000000000003,5.9244019355468662,5.9316917843792742
0.28999999999999998,6.5171880299962668,6.5259434308757527
0.29099999999999998,7.2070272288863784,7.2172062039540865
0.29199999999999998,7.9765338035903275,7.9880037500021546
0.29299999999999998,8.7986582478256263,8.8111983838910017
0.29399999999999998,9.6389670151955755,9.6522844823238287
0.29499999999999998,10.45988548180218,10.473643696707425
0.29599999999999999,11.225902520401037,11.239756555350343
0.29699999999999999,11.90828148006133,11.921913081353662
0.29799999999999999,12.488028754891522,12.501174157168878
0.29899999999999999,12.956609750359235,12.969076263997282
0.29999999999999999,13.31472247946658,13.326393374418799
